Current (mA),Time (ms)
Current (mA),Time (ms)
0.000,2810.000
0.079,16935.000
0.102,21124.000
0.127,25302.000
0.145,29476.000
0.173,33687.000
0.182,37830.000
0.236,42021.000
0.334,46204.000
0.514,50396.000
0.710,54579.000
1.197,58762.000
1.623,62932.000
2.191,67100.000
2.878,71323.000
4.071,75537.000
5.347,79750.000
