Current (mA),Time (ms)
Current (mA),Time (ms)
0.000,2811.000
0.042,17021.000
0.061,21252.000
0.078,25483.000
0.086,29714.000
0.095,33910.000
0.116,38175.000
0.208,42420.000
0.314,46633.000
0.545,50905.000
0.925,55130.000
1.395,59375.000
2.061,63613.000
2.965,67875.000
3.657,72126.000
4.984,76385.000
6.503,80638.000
