Current (mA),Time (ms)
Current (mA),Time (ms)
0.000,2755.000
0.287,16848.000
0.307,21032.000
0.334,25116.000
0.352,29264.000
0.397,33397.000
0.669,37538.000
0.888,41678.000
1.219,45816.000
1.270,49961.000
1.430,54138.000
1.576,58297.000
1.892,62428.000
2.486,66582.000
3.031,70737.000
3.743,74851.000
4.604,79014.000
6.090,83169.000
