Current (mA),Time (ms)
Current (mA),Time (ms)
0.000,2814.000
0.067,16934.000
0.093,21149.000
0.106,25400.000
0.121,29610.000
0.132,33842.000
0.143,38106.000
0.204,42358.000
0.354,46600.000
0.603,50788.000
0.968,55025.000
1.271,59249.000
2.006,63477.000
2.753,67693.000
3.359,71929.000
4.204,76167.000
5.003,80432.000
