Current (mA),Time (ms)
Current (mA),Time (ms)
0.000,2808.000
0.030,16975.000
0.043,21177.000
0.052,25382.000
0.062,29619.000
0.070,33837.000
0.079,38091.000
0.105,42321.000
0.244,46548.000
0.397,50740.000
0.636,54934.000
0.905,59181.000
1.222,63410.000
1.576,67635.000
2.020,71859.000
2.727,76092.000
3.490,80313.000
4.553,84515.000
5.863,88749.000
