Current (mA),Time (ms)
Current (mA),Time (ms)
0.000,2838.000
0.048,16923.000
0.077,21148.000
0.089,25308.000
0.105,29493.000
0.130,33672.000
0.328,37891.000
0.976,42011.000
1.493,46123.000
2.104,50304.000
2.879,54492.000
3.654,58706.000
4.532,62852.000
5.464,67021.000
