Current (mA),Time (ms)
Current (mA),Time (ms)
0.000,2780.000
0.156,16950.000
0.189,21133.000
0.239,25301.000
0.403,29501.000
1.454,33694.000
2.008,37911.000
2.079,42160.000
2.594,46403.000
3.060,50604.000
3.436,54752.000
3.931,58960.000
3.963,63171.000
4.334,67414.000
4.495,71665.000
5.314,75872.000
