Current (mA),Time (ms)
Current (mA),Time (ms)
0.000,2821.000
0.036,16955.000
0.054,21125.000
0.072,25291.000
0.111,29536.000
0.134,33702.000
0.152,37874.000
0.295,42050.000
0.885,46258.000
1.459,50418.000
2.523,54643.000
3.268,58861.000
4.552,63141.000
5.611,67359.000
