Current (mA),Time (ms)
Current (mA),Time (ms)
0.000,2751.000
0.465,16844.000
0.509,21055.000
0.574,25246.000
0.610,29442.000
0.949,33609.000
1.771,37766.000
2.729,41986.000
3.144,46191.000
3.737,50405.000
4.566,54623.000
4.853,58823.000
5.298,62972.000
